ENVI
samples = 696
lines = 846
bands = 256
header offset = 0
file type = ENVI Standard
data type = 12
interleave = bil
sensor type = Unknown
wavelength units = nm
binning = {1,1}
wavelength = {
396.40,
398.70,
401.00,
403.30,
405.50,
407.80,
410.10,
412.40,
414.70,
417.00,
419.30,
421.60,
423.90,
426.20,
428.50,
430.80,
433.20,
435.50,
437.80,
440.10,
442.40,
444.70,
447.00,
449.30,
451.70,
454.00,
456.30,
458.60,
461.00,
463.30,
465.60,
467.90,
470.30,
472.60,
474.90,
477.30,
479.60,
481.90,
484.30,
486.60,
489.00,
491.30,
493.70,
496.00,
498.30,
500.70,
503.00,
505.40,
507.80,
510.10,
512.50,
514.80,
517.20,
519.50,
521.90,
524.30,
526.60,
529.00,
531.40,
533.70,
536.10,
538.50,
540.80,
543.20,
545.60,
548.00,
550.30,
552.70,
555.10,
557.50,
559.90,
562.20,
564.60,
567.00,
569.40,
571.80,
574.20,
576.60,
579.00,
581.40,
583.80,
586.20,
588.60,
591.00,
593.40,
595.80,
598.20,
600.60,
603.00,
605.40,
607.80,
610.20,
612.70,
615.10,
617.50,
619.90,
622.30,
624.70,
627.20,
629.60,
632.00,
634.40,
636.90,
639.30,
641.70,
644.20,
646.60,
649.00,
651.50,
653.90,
656.30,
658.80,
661.20,
663.70,
666.10,
668.60,
671.00,
673.50,
675.90,
678.40,
680.80,
683.30,
685.70,
688.20,
690.60,
693.10,
695.60,
698.00,
700.50,
703.00,
705.40,
707.90,
710.40,
712.80,
715.30,
717.80,
720.30,
722.70,
725.20,
727.70,
730.20,
732.60,
735.10,
737.60,
740.10,
742.60,
745.10,
747.60,
750.10,
752.60,
755.10,
757.50,
760.00,
762.50,
765.00,
767.50,
770.10,
772.60,
775.10,
777.60,
780.10,
782.60,
785.10,
787.60,
790.10,
792.60,
795.20,
797.70,
800.20,
802.70,
805.20,
807.80,
810.30,
812.80,
815.30,
817.90,
820.40,
822.90,
825.50,
828.00,
830.50,
833.10,
835.60,
838.20,
840.70,
843.20,
845.80,
848.30,
850.90,
853.40,
856.00,
858.50,
861.10,
863.60,
866.20,
868.80,
871.30,
873.90,
876.40,
879.00,
881.60,
884.10,
886.70,
889.30,
891.80,
894.40,
897.00,
899.60,
902.10,
904.70,
907.30,
909.90,
912.50,
915.00,
917.60,
920.20,
922.80,
925.40,
928.00,
930.60,
933.20,
935.70,
938.30,
940.90,
943.50,
946.10,
948.70,
951.30,
953.90,
956.50,
959.20,
961.80,
964.40,
967.00,
969.60,
972.20,
974.80,
977.40,
980.10,
982.70,
985.30,
987.90,
990.50,
993.20,
995.80,
998.40,
1001.00,
1003.70,
1006.30,
1008.90,
1011.60,
1014.20,
1016.80,
1019.50,
1022.10,
1024.80
}